 *                                      
 * hydrostatic:  btemp=  6.000E+09 bden=  6.000E+09
 *          time                temp          den           ener          sdot          sneut         s-snu         ye            1-sum
      1  0.000000000000E+00  6.000000E+09  6.000000E+09  2.578649E+18  4.737647E+30  5.987815E+11  4.737647E+30  5.000000E-01  0.000000E+00
      2  3.189849763807E-19  6.000000E+09  6.000000E+09  2.578651E+18  4.737570E+30  5.987815E+11  4.737570E+30  5.000000E-01  1.110223E-16
      3  7.284980112780E-19  6.000000E+09  6.000000E+09  2.578653E+18  4.737471E+30  5.987815E+11  4.737471E+30  5.000000E-01  1.110223E-16
      4  1.415009488652E-18  6.000000E+09  6.000000E+09  2.578656E+18  4.737305E+30  5.987815E+11  4.737305E+30  5.000000E-01  2.220446E-16
      5  2.125615153299E-18  6.000000E+09  6.000000E+09  2.578659E+18  4.737134E+30  5.987815E+11  4.737134E+30  5.000000E-01  2.220446E-16
      6  2.837857506092E-18  6.000000E+09  6.000000E+09  2.578663E+18  4.736962E+30  5.987815E+11  4.736962E+30  5.000000E-01  5.551115E-16
      7  3.550267053028E-18  6.000000E+09  6.000000E+09  2.578666E+18  4.736789E+30  5.987815E+11  4.736789E+30  5.000000E-01  3.330669E-16
      8  4.262679029710E-18  6.000000E+09  6.000000E+09  2.578669E+18  4.736617E+30  5.987815E+11  4.736617E+30  5.000000E-01  2.220446E-16
      9  4.975129789256E-18  6.000000E+09  6.000000E+09  2.578673E+18  4.736445E+30  5.987815E+11  4.736445E+30  5.000000E-01 -2.220446E-16
     10  5.687631324920E-18  6.000000E+09  6.000000E+09  2.578676E+18  4.736273E+30  5.987815E+11  4.736273E+30  5.000000E-01 -2.220446E-16
     11  6.400268201875E-18  6.000000E+09  6.000000E+09  2.578679E+18  4.736101E+30  5.987815E+11  4.736101E+30  5.000000E-01 -2.220446E-16
     12  7.112871198883E-18  6.000000E+09  6.000000E+09  2.578683E+18  4.735929E+30  5.987815E+11  4.735929E+30  5.000000E-01 -6.661338E-16
     13  7.825480659565E-18  6.000000E+09  6.000000E+09  2.578686E+18  4.735757E+30  5.987815E+11  4.735757E+30  5.000000E-01 -6.661338E-16
     14  8.538071789095E-18  6.000000E+09  6.000000E+09  2.578690E+18  4.735584E+30  5.987815E+11  4.735584E+30  5.000000E-01 -6.661338E-16
     15  9.250588964756E-18  6.000000E+09  6.000000E+09  2.578693E+18  4.735412E+30  5.987815E+11  4.735412E+30  5.000000E-01 -6.661338E-16
     16  9.963291105266E-18  6.000000E+09  6.000000E+09  2.578696E+18  4.735240E+30  5.987815E+11  4.735240E+30  5.000000E-01 -1.332268E-15
     17  1.067594293696E-17  6.000000E+09  6.000000E+09  2.578700E+18  4.735068E+30  5.987815E+11  4.735068E+30  5.000000E-01 -1.110223E-15
     18  1.139603245599E-17  6.000000E+09  6.000000E+09  2.578703E+18  4.734894E+30  5.987815E+11  4.734894E+30  5.000000E-01 -1.110223E-15
     19  1.215060542363E-17  6.000000E+09  6.000000E+09  2.578707E+18  4.734712E+30  5.987815E+11  4.734712E+30  5.000000E-01 -6.661338E-16
     20  1.294700349711E-17  6.000000E+09  6.000000E+09  2.578710E+18  4.734520E+30  5.987815E+11  4.734520E+30  5.000000E-01 -6.661338E-16
     21  1.378830221711E-17  6.000000E+09  6.000000E+09  2.578714E+18  4.734317E+30  5.987815E+11  4.734317E+30  5.000000E-01 -4.440892E-16
     22  1.467648601821E-17  6.000000E+09  6.000000E+09  2.578719E+18  4.734102E+30  5.987815E+11  4.734102E+30  5.000000E-01 -8.881784E-16
     23  1.561392346581E-17  6.000000E+09  6.000000E+09  2.578723E+18  4.733876E+30  5.987815E+11  4.733876E+30  5.000000E-01 -6.661338E-16
     24  1.660213996417E-17  6.000000E+09  6.000000E+09  2.578728E+18  4.733637E+30  5.987815E+11  4.733637E+30  5.000000E-01 -1.110223E-15
     25  1.764422757123E-17  6.000000E+09  6.000000E+09  2.578733E+18  4.733386E+30  5.987815E+11  4.733386E+30  5.000000E-01 -8.881784E-16
     26  1.874236990614E-17  6.000000E+09  6.000000E+09  2.578738E+18  4.733121E+30  5.987815E+11  4.733121E+30  5.000000E-01  1.110223E-16
     27  1.989890036030E-17  6.000000E+09  6.000000E+09  2.578743E+18  4.732842E+30  5.987815E+11  4.732842E+30  5.000000E-01  5.551115E-16
     28  2.111648929537E-17  6.000000E+09  6.000000E+09  2.578749E+18  4.732548E+30  5.987815E+11  4.732548E+30  5.000000E-01  5.551115E-16
     29  2.239812732653E-17  6.000000E+09  6.000000E+09  2.578755E+18  4.732239E+30  5.987815E+11  4.732239E+30  5.000000E-01  3.330669E-16
     30  2.374598530524E-17  6.000000E+09  6.000000E+09  2.578762E+18  4.731913E+30  5.987815E+11  4.731913E+30  5.000000E-01  2.220446E-16
     31  2.516310217108E-17  6.000000E+09  6.000000E+09  2.578768E+18  4.731572E+30  5.987815E+11  4.731572E+30  5.000000E-01  0.000000E+00
     32  3.187954782754E-17  6.000000E+09  6.000000E+09  2.578800E+18  4.729952E+30  5.987815E+11  4.729952E+30  5.000000E-01 -2.220446E-16
     33  9.904400439214E-17  6.000000E+09  6.000000E+09  2.579117E+18  4.713801E+30  5.987815E+11  4.713801E+30  5.000000E-01 -4.440892E-16
     34  7.706885700382E-16  6.000000E+09  6.000000E+09  2.582230E+18  4.556805E+30  5.987815E+11  4.556805E+30  5.000000E-01  3.330669E-16
     35  5.946943305213E-15  6.000000E+09  6.000000E+09  2.603120E+18  3.575409E+30  5.987817E+11  3.575409E+30  5.000000E-01  2.331468E-15
     36  2.034232549379E-14  6.000000E+09  6.000000E+09  2.642301E+18  2.078123E+30  5.987868E+11  2.078123E+30  5.000000E-01  1.998401E-15
     37  4.931779532134E-14  6.000000E+09  6.000000E+09  2.683674E+18  9.956092E+29  5.988213E+11  9.956092E+29  5.000000E-01  1.221245E-15
     38  8.686453927394E-14  6.000000E+09  6.000000E+09  2.711403E+18  5.609842E+29  5.989032E+11  5.609842E+29  5.000000E-01  1.554312E-15
     39  1.838918873023E-13  6.000000E+09  6.000000E+09  2.749111E+18  2.956099E+29  5.992243E+11  2.956099E+29  5.000000E-01  9.992007E-16
     40  3.024360768707E-13  6.000000E+09  6.000000E+09  2.779649E+18  2.335863E+29  5.997254E+11  2.335863E+29  5.000000E-01  2.220446E-16
     41  5.924527420508E-13  6.000000E+09  6.000000E+09  2.840693E+18  1.936632E+29  6.011459E+11  1.936632E+29  5.000000E-01  0.000000E+00
     42  9.497472795872E-13  6.000000E+09  6.000000E+09  2.903569E+18  1.584357E+29  6.029643E+11  1.584357E+29  5.000000E-01  0.000000E+00
     43  1.705660054148E-12  6.000000E+09  6.000000E+09  2.998107E+18  9.568034E+28  6.063719E+11  9.568034E+28  5.000000E-01 -6.661338E-16
     44  2.776220950995E-12  6.000000E+09  6.000000E+09  3.070421E+18  4.573380E+28  6.097406E+11  4.573380E+28  5.000000E-01  1.110223E-16
     45  5.132479398787E-12  6.000000E+09  6.000000E+09  3.125247E+18  1.006506E+28  6.129483E+11  1.006506E+28  5.000000E-01 -8.881784E-16
     46  8.128759522623E-12  6.000000E+09  6.000000E+09  3.139481E+18  1.878364E+27  6.138685E+11  1.878364E+27  5.000000E-01 -1.110223E-15
     47  1.423927198868E-11  6.000000E+09  6.000000E+09  3.143892E+18  3.136712E+26  6.140925E+11  3.136712E+26  5.000000E-01 -1.110223E-15
     48  2.089769464950E-11  6.000000E+09  6.000000E+09  3.145542E+18  2.113812E+26  6.141287E+11  2.113812E+26  5.000000E-01 -1.332268E-15
     49  2.939128347641E-11  6.000000E+09  6.000000E+09  3.147177E+18  1.793268E+26  6.141502E+11  1.793268E+26  5.000000E-01 -1.110223E-15
     50  5.080904399118E-11  6.000000E+09  6.000000E+09  3.150711E+18  1.562007E+26  6.141792E+11  1.562007E+26  5.000000E-01 -2.220446E-15
     51  7.462414108269E-11  6.000000E+09  6.000000E+09  3.154329E+18  1.489546E+26  6.142038E+11  1.489546E+26  5.000000E-01 -2.442491E-15
     52  1.055873918370E-10  6.000000E+09  6.000000E+09  3.158896E+18  1.469513E+26  6.142394E+11  1.469513E+26  5.000000E-01 -2.664535E-15
     53  1.790525872829E-10  6.000000E+09  6.000000E+09  3.169885E+18  1.535034E+26  6.143693E+11  1.535034E+26  5.000000E-01 -2.664535E-15
     54  2.530569182727E-10  6.000000E+09  6.000000E+09  3.181525E+18  1.601105E+26  6.145732E+11  1.601105E+26  5.000000E-01 -3.330669E-15
     55  2.723891822102E-10  6.000000E+09  6.000000E+09  3.184627E+18  1.607052E+26  6.146366E+11  1.607052E+26  5.000000E-01 -3.996803E-15
     56  2.906075365440E-10  6.000000E+09  6.000000E+09  3.187556E+18  1.607765E+26  6.146993E+11  1.607765E+26  5.000000E-01 -3.552714E-15
     57  3.305686040294E-10  6.000000E+09  6.000000E+09  3.193960E+18  1.593538E+26  6.148451E+11  1.593538E+26  5.000000E-01 -3.774758E-15
     58  4.113199786976E-10  6.000000E+09  6.000000E+09  3.206536E+18  1.511239E+26  6.151604E+11  1.511239E+26  5.000000E-01 -4.662937E-15
     59  4.331739960389E-10  6.000000E+09  6.000000E+09  3.209805E+18  1.480099E+26  6.152478E+11  1.480099E+26  5.000000E-01 -4.662937E-15
     60  4.538639031984E-10  6.000000E+09  6.000000E+09  3.212835E+18  1.448261E+26  6.153305E+11  1.448261E+26  5.000000E-01 -4.440892E-15
     61  4.994568666177E-10  6.000000E+09  6.000000E+09  3.219267E+18  1.372359E+26  6.155117E+11  1.372359E+26  5.000000E-01 -4.218847E-15
     62  5.924791265927E-10  6.000000E+09  6.000000E+09  3.231269E+18  1.207142E+26  6.158680E+11  1.207142E+26  5.000000E-01 -4.218847E-15
     63  6.185425936609E-10  6.000000E+09  6.000000E+09  3.234355E+18  1.160936E+26  6.159633E+11  1.160936E+26  5.000000E-01 -4.440892E-15
     64  6.430727198726E-10  6.000000E+09  6.000000E+09  3.237150E+18  1.118096E+26  6.160509E+11  1.118096E+26  5.000000E-01 -4.218847E-15
     65  6.968852618443E-10  6.000000E+09  6.000000E+09  3.242920E+18  1.027269E+26  6.162353E+11  1.027269E+26  5.000000E-01 -3.774758E-15
     66  7.432552180257E-10  6.000000E+09  6.000000E+09  3.247510E+18  9.533068E+25  6.163856E+11  9.533068E+25  5.000000E-01 -3.108624E-15
     67  8.372073078406E-10  6.000000E+09  6.000000E+09  3.255813E+18  8.174384E+25  6.166654E+11  8.174384E+25  5.000000E-01 -3.552714E-15
     68  8.841810430158E-10  6.000000E+09  6.000000E+09  3.259509E+18  7.567177E+25  6.167932E+11  7.567177E+25  5.000000E-01 -3.774758E-15
     69  9.788789967439E-10  6.000000E+09  6.000000E+09  3.266147E+18  6.482653E+25  6.170278E+11  6.482653E+25  5.000000E-01 -3.774758E-15
     70  1.028862454509E-09  6.000000E+09  6.000000E+09  3.269260E+18  5.980056E+25  6.171400E+11  5.980056E+25  5.000000E-01 -3.996803E-15
     71  1.131618172749E-09  6.000000E+09  6.000000E+09  3.274928E+18  5.080684E+25  6.173481E+11  5.080684E+25  5.000000E-01 -3.774758E-15
     72  1.186128639979E-09  6.000000E+09  6.000000E+09  3.277583E+18  4.668489E+25  6.174473E+11  4.668489E+25  5.000000E-01 -4.440892E-15
     73  1.301833451019E-09  6.000000E+09  6.000000E+09  3.282536E+18  3.919544E+25  6.176350E+11  3.919544E+25  5.000000E-01 -3.996803E-15
     74  1.362410546758E-09  6.000000E+09  6.000000E+09  3.284808E+18  3.586306E+25  6.177223E+11  3.586306E+25  5.000000E-01 -4.218847E-15
     75  1.499924508232E-09  6.000000E+09  6.000000E+09  3.289285E+18  2.952078E+25  6.178965E+11  2.952078E+25  5.000000E-01 -4.440892E-15
     76  1.523673103856E-09  6.000000E+09  6.000000E+09  3.289975E+18  2.857373E+25  6.179235E+11  2.857373E+25  5.000000E-01 -4.662937E-15
     77  1.548407159416E-09  6.000000E+09  6.000000E+09  3.290670E+18  2.762833E+25  6.179509E+11  2.762833E+25  5.000000E-01 -4.440892E-15
     78  1.618819245835E-09  6.000000E+09  6.000000E+09  3.292526E+18  2.514868E+25  6.180242E+11  2.514868E+25  5.000000E-01 -4.440892E-15
     79  1.783602661002E-09  6.000000E+09  6.000000E+09  3.296260E+18  2.038278E+25  6.181728E+11  2.038278E+25  5.000000E-01 -6.439294E-15
     80  1.806070460500E-09  6.000000E+09  6.000000E+09  3.296712E+18  1.982815E+25  6.181909E+11  1.982815E+25  5.000000E-01 -6.439294E-15
     81  1.834257184686E-09  6.000000E+09  6.000000E+09  3.297261E+18  1.916039E+25  6.182129E+11  1.916039E+25  5.000000E-01 -6.661338E-15
     82  1.894876694067E-09  6.000000E+09  6.000000E+09  3.298381E+18  1.782292E+25  6.182579E+11  1.782292E+25  5.000000E-01 -6.883383E-15
     83  1.956223077554E-09  6.000000E+09  6.000000E+09  3.299436E+18  1.659425E+25  6.183003E+11  1.659425E+25  5.000000E-01 -7.327472E-15
     84  2.096811856442E-09  6.000000E+09  6.000000E+09  3.301594E+18  1.418201E+25  6.183872E+11  1.418201E+25  5.000000E-01 -9.325873E-15
     85  2.125293292763E-09  6.000000E+09  6.000000E+09  3.301991E+18  1.375276E+25  6.184032E+11  1.375276E+25  5.000000E-01 -9.547918E-15
     86  2.147664241022E-09  6.000000E+09  6.000000E+09  3.302295E+18  1.342809E+25  6.184155E+11  1.342809E+25  5.000000E-01 -9.547918E-15
     87  2.225435834200E-09  6.000000E+09  6.000000E+09  3.303298E+18  1.237868E+25  6.184559E+11  1.237868E+25  5.000000E-01 -9.992007E-15
     88  2.415237247315E-09  6.000000E+09  6.000000E+09  3.305437E+18  1.025600E+25  6.185421E+11  1.025600E+25  5.000000E-01 -1.021405E-14
     89  2.442583637179E-09  6.000000E+09  6.000000E+09  3.305714E+18  9.993419E+24  6.185532E+11  9.993419E+24  5.000000E-01 -9.992007E-15
     90  2.473989154347E-09  6.000000E+09  6.000000E+09  3.306023E+18  9.703514E+24  6.185657E+11  9.703514E+24  5.000000E-01 -9.992007E-15
     91  2.544786159009E-09  6.000000E+09  6.000000E+09  3.306688E+18  9.092548E+24  6.185924E+11  9.092548E+24  5.000000E-01 -9.992007E-15
     92  2.624298262364E-09  6.000000E+09  6.000000E+09  3.307386E+18  8.470094E+24  6.186203E+11  8.470094E+24  5.000000E-01 -9.992007E-15
     93  2.835869010216E-09  6.000000E+09  6.000000E+09  3.309026E+18  7.085621E+24  6.186857E+11  7.085621E+24  5.000000E-01 -9.769963E-15
     94  2.867713962127E-09  6.000000E+09  6.000000E+09  3.309248E+18  6.906133E+24  6.186946E+11  6.906133E+24  5.000000E-01 -9.547918E-15
     95  2.895488441437E-09  6.000000E+09  6.000000E+09  3.309438E+18  6.754948E+24  6.187021E+11  6.754948E+24  5.000000E-01 -9.325873E-15
     96  2.930607443791E-09  6.000000E+09  6.000000E+09  3.309672E+18  6.570606E+24  6.187114E+11  6.570606E+24  5.000000E-01 -9.325873E-15
     97  2.956830440270E-09  6.000000E+09  6.000000E+09  3.309843E+18  6.437713E+24  6.187181E+11  6.437713E+24  5.000000E-01 -9.103829E-15
     98  3.102404593124E-09  6.000000E+09  6.000000E+09  3.310730E+18  5.766877E+24  6.187531E+11  5.766877E+24  5.000000E-01 -8.659740E-15
     99  3.139516126598E-09  6.000000E+09  6.000000E+09  3.310941E+18  5.612270E+24  6.187614E+11  5.612270E+24  5.000000E-01 -8.437695E-15
    100  3.166242764716E-09  6.000000E+09  6.000000E+09  3.311089E+18  5.504661E+24  6.187673E+11  5.504661E+24  5.000000E-01 -7.549517E-15
    101  3.300036825337E-09  6.000000E+09  6.000000E+09  3.311792E+18  5.008933E+24  6.187948E+11  5.008933E+24  5.000000E-01 -6.883383E-15
    102  3.395478493088E-09  6.000000E+09  6.000000E+09  3.312255E+18  4.694316E+24  6.188128E+11  4.694316E+24  5.000000E-01 -6.883383E-15
    103  3.472843195480E-09  6.000000E+09  6.000000E+09  3.312609E+18  4.460079E+24  6.188266E+11  4.460079E+24  5.000000E-01 -6.439294E-15
    104  3.688090852117E-09  6.000000E+09  6.000000E+09  3.313505E+18  3.891517E+24  6.188613E+11  3.891517E+24  5.000000E-01 -6.439294E-15
    105  3.801951788869E-09  6.000000E+09  6.000000E+09  3.313934E+18  3.632605E+24  6.188778E+11  3.632605E+24  5.000000E-01 -6.661338E-15
    106  4.143861661358E-09  6.000000E+09  6.000000E+09  3.315060E+18  2.989220E+24  6.189209E+11  2.989220E+24  5.000000E-01 -5.773160E-15
    107  4.359361658383E-09  6.000000E+09  6.000000E+09  3.315669E+18  2.664564E+24  6.189440E+11  2.664564E+24  5.000000E-01 -6.217249E-15
    108  4.405453174908E-09  6.000000E+09  6.000000E+09  3.315790E+18  2.601655E+24  6.189486E+11  2.601655E+24  5.000000E-01 -6.883383E-15
    109  4.438071215090E-09  6.000000E+09  6.000000E+09  3.315874E+18  2.558394E+24  6.189518E+11  2.558394E+24  5.000000E-01 -6.217249E-15
    110  4.573959786929E-09  6.000000E+09  6.000000E+09  3.316210E+18  2.388632E+24  6.189646E+11  2.388632E+24  5.000000E-01 -6.661338E-15
    111  4.685678425559E-09  6.000000E+09  6.000000E+09  3.316470E+18  2.260637E+24  6.189744E+11  2.260637E+24  5.000000E-01 -6.661338E-15
    112  5.004810173122E-09  6.000000E+09  6.000000E+09  3.317139E+18  1.943482E+24  6.189998E+11  1.943482E+24  5.000000E-01 -8.437695E-15
    113  5.092002201503E-09  6.000000E+09  6.000000E+09  3.317305E+18  1.867555E+24  6.190061E+11  1.867555E+24  5.000000E-01 -8.215650E-15
    114  5.168825561346E-09  6.000000E+09  6.000000E+09  3.317446E+18  1.803977E+24  6.190115E+11  1.803977E+24  5.000000E-01 -7.327472E-15
    115  5.366232683558E-09  6.000000E+09  6.000000E+09  3.317787E+18  1.653552E+24  6.190244E+11  1.653552E+24  5.000000E-01 -7.105427E-15
    116  5.498080528529E-09  6.000000E+09  6.000000E+09  3.317999E+18  1.562417E+24  6.190325E+11  1.562417E+24  5.000000E-01 -7.327472E-15
    117  5.850428947813E-09  6.000000E+09  6.000000E+09  3.318511E+18  1.349810E+24  6.190522E+11  1.349810E+24  5.000000E-01 -6.661338E-15
    118  5.949940591055E-09  6.000000E+09  6.000000E+09  3.318642E+18  1.296847E+24  6.190573E+11  1.296847E+24  5.000000E-01 -6.661338E-15
    119  6.042838855202E-09  6.000000E+09  6.000000E+09  3.318761E+18  1.249878E+24  6.190619E+11  1.249878E+24  5.000000E-01 -6.661338E-15
    120  6.290909439284E-09  6.000000E+09  6.000000E+09  3.319056E+18  1.135073E+24  6.190734E+11  1.135073E+24  5.000000E-01 -7.327472E-15
    121  6.386847030388E-09  6.000000E+09  6.000000E+09  3.319163E+18  1.094441E+24  6.190776E+11  1.094441E+24  5.000000E-01 -6.883383E-15
    122  6.477157093710E-09  6.000000E+09  6.000000E+09  3.319260E+18  1.057939E+24  6.190814E+11  1.057939E+24  5.000000E-01 -6.661338E-15
    123  6.721946556922E-09  6.000000E+09  6.000000E+09  3.319508E+18  9.668024E+23  6.190912E+11  9.668024E+23  5.000000E-01 -6.217249E-15
    124  6.822190317316E-09  6.000000E+09  6.000000E+09  3.319603E+18  9.324924E+23  6.190950E+11  9.324924E+23  5.000000E-01 -5.995204E-15
    125  6.918812310754E-09  6.000000E+09  6.000000E+09  3.319692E+18  9.009378E+23  6.190985E+11  9.009378E+23  5.000000E-01 -6.217249E-15
    126  7.186487155784E-09  6.000000E+09  6.000000E+09  3.319922E+18  8.206286E+23  6.191079E+11  8.206286E+23  5.000000E-01 -6.217249E-15
    127  7.289276197629E-09  6.000000E+09  6.000000E+09  3.320005E+18  7.923291E+23  6.191112E+11  7.923291E+23  5.000000E-01 -6.883383E-15
    128  7.390454154499E-09  6.000000E+09  6.000000E+09  3.320083E+18  7.657329E+23  6.191145E+11  7.657329E+23  5.000000E-01 -7.105427E-15
    129  7.677450586093E-09  6.000000E+09  6.000000E+09  3.320293E+18  6.965146E+23  6.191231E+11  6.965146E+23  5.000000E-01 -7.327472E-15
    130  7.784715612078E-09  6.000000E+09  6.000000E+09  3.320367E+18  6.728064E+23  6.191262E+11  6.728064E+23  5.000000E-01 -7.327472E-15
    131  7.893453819735E-09  6.000000E+09  6.000000E+09  3.320438E+18  6.498709E+23  6.191292E+11  6.498709E+23  5.000000E-01 -7.105427E-15
    132  8.214650104033E-09  6.000000E+09  6.000000E+09  3.320637E+18  5.880156E+23  6.191377E+11  5.880156E+23  5.000000E-01 -6.661338E-15
    133  8.329239840146E-09  6.000000E+09  6.000000E+09  3.320703E+18  5.678914E+23  6.191405E+11  5.678914E+23  5.000000E-01 -6.661338E-15
    134  8.452271985465E-09  6.000000E+09  6.000000E+09  3.320772E+18  5.473204E+23  6.191435E+11  5.473204E+23  5.000000E-01 -6.439294E-15
    135  8.898630880934E-09  6.000000E+09  6.000000E+09  3.321001E+18  4.807564E+23  6.191536E+11  4.807564E+23  5.000000E-01 -6.439294E-15
    136  9.041135063318E-09  6.000000E+09  6.000000E+09  3.321068E+18  4.618823E+23  6.191566E+11  4.618823E+23  5.000000E-01 -6.661338E-15
    137  9.184579688503E-09  6.000000E+09  6.000000E+09  3.321133E+18  4.439177E+23  6.191595E+11  4.439177E+23  5.000000E-01 -5.551115E-15
    138  9.600370325343E-09  6.000000E+09  6.000000E+09  3.321308E+18  3.971129E+23  6.191675E+11  3.971129E+23  5.000000E-01 -5.551115E-15
    139  9.849174206703E-09  6.000000E+09  6.000000E+09  3.321403E+18  3.724217E+23  6.191720E+11  3.724217E+23  5.000000E-01 -5.329071E-15
    140  1.072209106591E-08  6.000000E+09  6.000000E+09  3.321696E+18  3.015130E+23  6.191860E+11  3.015130E+23  5.000000E-01 -5.773160E-15
    141  1.140811790362E-08  6.000000E+09  6.000000E+09  3.321887E+18  2.591116E+23  6.191956E+11  2.591116E+23  5.000000E-01 -5.551115E-15
